Wavelength,0.115MB_AuNP_MQW,0.115MB_cenAuNP_MQW,0.30MB_AuNP_MQW,0.30MB_cenAuNP_MQW,0.115MB_AuNP_As30,0.115MB_cenAuNP_As30,0.30MB_AuNP_As30_1,0.30MB_cenAuNP_As30
200.0,0.37239,0.29498,0.26086,0.28961,0.36463,0.30958,0.26196,0.18362
201.0,0.35596,0.28816,0.24227,0.27381,0.34986,0.30218,0.24929,0.17868
202.0,0.34378,0.28129,0.22597,0.25945,0.33858,0.29557,0.23666,0.1708
203.0,0.33264,0.27874,0.21289,0.24801,0.32429,0.28856,0.22575,0.16747
204.0,0.32425,0.27351,0.20327,0.23573,0.31542,0.28017,0.21685,0.16133
205.0,0.31491,0.26883,0.19622,0.22583,0.30819,0.27626,0.20979,0.15805
206.0,0.30744,0.26779,0.1877,0.21922,0.29902,0.27462,0.20236,0.15463
207.0,0.30075,0.26434,0.18359,0.21167,0.29271,0.26947,0.19681,0.15299
208.0,0.29554,0.26124,0.17733,0.20371,0.2882,0.26538,0.19354,0.14831
209.0,0.28891,0.26115,0.17176,0.19674,0.28261,0.26239,0.18855,0.14728
210.0,0.28569,0.26011,0.1665,0.19174,0.27791,0.25974,0.1843,0.14717
211.0,0.28007,0.25671,0.16212,0.18728,0.27262,0.25867,0.17896,0.14356
212.0,0.27764,0.2557,0.16014,0.18379,0.26892,0.25731,0.17618,0.14542
213.0,0.27392,0.25523,0.15766,0.17957,0.26585,0.2546,0.17256,0.14344
214.0,0.27013,0.253,0.15492,0.17619,0.26152,0.25331,0.16906,0.14273
215.0,0.26894,0.25346,0.15232,0.17487,0.25839,0.25287,0.16693,0.14216
216.0,0.26668,0.25025,0.14947,0.17155,0.25572,0.24853,0.1637,0.1403
217.0,0.26385,0.25031,0.14815,0.1687,0.25219,0.24697,0.16147,0.14018
218.0,0.2612,0.24755,0.14654,0.16531,0.24907,0.24629,0.15839,0.1385
219.0,0.25875,0.24684,0.14417,0.16422,0.24596,0.2447,0.15664,0.13853
220.0,0.25582,0.24484,0.14168,0.16164,0.242,0.24284,0.15364,0.1366
221.0,0.25422,0.24362,0.14101,0.1585,0.24007,0.2411,0.15202,0.1358
222.0,0.25272,0.24211,0.13978,0.15666,0.23828,0.23952,0.15076,0.13501
223.0,0.25415,0.24483,0.14142,0.15859,0.23918,0.24225,0.15015,0.1383
224.0,0.24899,0.23954,0.13753,0.15327,0.23391,0.23666,0.1489,0.134
225.0,0.24716,0.23845,0.13615,0.15225,0.23222,0.23557,0.14756,0.13305
226.0,0.24601,0.23721,0.13513,0.15141,0.23098,0.23418,0.14756,0.13232
227.0,0.24456,0.23649,0.13389,0.15106,0.22994,0.23366,0.14662,0.13189
228.0,0.24274,0.23508,0.133,0.15067,0.22838,0.23269,0.14565,0.13116
229.0,0.24086,0.23404,0.13145,0.15112,0.22726,0.23194,0.14537,0.1308
230.0,0.24167,0.23588,0.13269,0.15403,0.22945,0.23401,0.14724,0.13316
231.0,0.23989,0.23453,0.13116,0.15432,0.22822,0.23302,0.14685,0.13213
232.0,0.238,0.23376,0.12974,0.15489,0.22712,0.23243,0.14634,0.129
233.0,0.23614,0.23265,0.12569,0.15291,0.22629,0.23148,0.14333,0.12872
234.0,0.23422,0.23141,0.12443,0.15364,0.22569,0.23072,0.14331,0.12825
235.0,0.22969,0.22829,0.12318,0.15469,0.22221,0.22769,0.14315,0.12815
236.0,0.22841,0.22775,0.12206,0.1556,0.22182,0.22727,0.14306,0.12776
237.0,0.22705,0.22692,0.12097,0.15633,0.2215,0.22676,0.14307,0.12734
238.0,0.22584,0.22618,0.12015,0.15714,0.2213,0.22625,0.14305,0.12704
239.0,0.22455,0.22543,0.11903,0.15774,0.22095,0.22585,0.14293,0.12678
240.0,0.22351,0.22478,0.11825,0.15817,0.22069,0.22526,0.14284,0.12653
241.0,0.22228,0.22402,0.11736,0.15866,0.22015,0.22471,0.14263,0.12627
242.0,0.22132,0.22349,0.11675,0.15893,0.21973,0.22428,0.14257,0.12608
243.0,0.22026,0.22272,0.11581,0.15905,0.21931,0.22369,0.14235,0.12586
244.0,0.21931,0.22203,0.11512,0.15885,0.21892,0.22319,0.14214,0.12561
245.0,0.21833,0.22127,0.11441,0.15856,0.21842,0.22255,0.14197,0.12525
246.0,0.21739,0.22052,0.11374,0.15808,0.21795,0.22177,0.14169,0.12483
247.0,0.21649,0.21982,0.11304,0.15745,0.21745,0.22115,0.14139,0.12437
248.0,0.2156,0.21906,0.11245,0.15632,0.21689,0.22049,0.1411,0.12379
249.0,0.21476,0.21815,0.1119,0.15517,0.21638,0.21957,0.14076,0.12332
250.0,0.21394,0.21744,0.11132,0.15403,0.21583,0.21891,0.14047,0.12276
251.0,0.21307,0.21673,0.11093,0.15272,0.21512,0.21823,0.14012,0.12245
252.0,0.21216,0.21605,0.11034,0.15141,0.21448,0.21746,0.13983,0.12195
253.0,0.21117,0.21523,0.10992,0.14977,0.21372,0.21662,0.13933,0.12132
254.0,0.21066,0.21445,0.10961,0.14826,0.21317,0.21571,0.13914,0.1208
255.0,0.2098,0.2138,0.10909,0.14692,0.21247,0.21512,0.13868,0.12058
256.0,0.20903,0.21308,0.1089,0.14558,0.21182,0.21438,0.13846,0.12029
257.0,0.20806,0.21225,0.10848,0.14397,0.21092,0.21352,0.13809,0.11982
258.0,0.2073,0.21148,0.10817,0.14252,0.21015,0.2126,0.13782,0.11955
259.0,0.20654,0.21039,0.1079,0.14085,0.20939,0.21139,0.13744,0.11902
260.0,0.20385,0.20818,0.10594,0.13817,0.20695,0.20925,0.13559,0.11743
261.0,0.20302,0.20737,0.10571,0.13709,0.20606,0.20838,0.13534,0.1172
262.0,0.20226,0.20648,0.10544,0.13591,0.20522,0.20747,0.13513,0.11707
263.0,0.20137,0.20564,0.10527,0.13516,0.20451,0.20661,0.13496,0.11694
264.0,0.20072,0.20483,0.10525,0.13442,0.20368,0.20581,0.13487,0.11707
265.0,0.1998,0.20395,0.10501,0.1337,0.20292,0.20487,0.13471,0.1169
266.0,0.19881,0.20279,0.1049,0.13275,0.20185,0.20383,0.13448,0.11688
267.0,0.19792,0.20185,0.10632,0.13209,0.20101,0.20266,0.13437,0.11835
268.0,0.19702,0.20073,0.10609,0.1332,0.20003,0.20168,0.13418,0.11843
269.0,0.19601,0.19983,0.10584,0.13261,0.19898,0.20063,0.13554,0.11824
270.0,0.19495,0.19853,0.10555,0.13175,0.19796,0.19941,0.13542,0.11805
271.0,0.19399,0.19734,0.10523,0.13115,0.19691,0.19823,0.13504,0.11794
272.0,0.19289,0.19627,0.10499,0.13055,0.19584,0.19714,0.1346,0.11797
273.0,0.19217,0.19671,0.10479,0.12991,0.19519,0.19752,0.13451,0.11783
274.0,0.19235,0.1953,0.1044,0.12939,0.19524,0.1962,0.13421,0.11776
275.0,0.19109,0.19392,0.10414,0.12873,0.19401,0.19482,0.13395,0.11762
276.0,0.1899,0.1926,0.10395,0.12824,0.19284,0.19352,0.13357,0.11769
277.0,0.18868,0.19124,0.10382,0.12784,0.19158,0.19207,0.13339,0.11766
278.0,0.18757,0.18981,0.10362,0.12736,0.19042,0.19071,0.13316,0.11764
279.0,0.18627,0.18834,0.10339,0.12689,0.18907,0.18933,0.13286,0.11761
280.0,0.18506,0.18709,0.10327,0.12641,0.18784,0.18802,0.13253,0.11759
281.0,0.18379,0.18565,0.10309,0.12615,0.18652,0.18668,0.13215,0.11772
282.0,0.18281,0.1845,0.10282,0.12589,0.18545,0.18541,0.13189,0.1177
283.0,0.18162,0.18311,0.10257,0.1256,0.18426,0.18413,0.13166,0.11781
284.0,0.18046,0.18174,0.10241,0.12516,0.18312,0.18285,0.13145,0.11778
285.0,0.17925,0.18049,0.10204,0.12469,0.1818,0.18149,0.13109,0.1178
286.0,0.1782,0.17927,0.10185,0.12462,0.18066,0.18035,0.13079,0.11793
287.0,0.17713,0.17806,0.10155,0.12426,0.17957,0.17912,0.13049,0.11795
288.0,0.17598,0.17686,0.10138,0.12399,0.17849,0.17797,0.13026,0.11798
289.0,0.17498,0.17569,0.10104,0.12347,0.17737,0.17672,0.12996,0.11778
290.0,0.17388,0.17442,0.1008,0.1231,0.1763,0.17559,0.12966,0.11771
291.0,0.1729,0.17332,0.10048,0.12272,0.17517,0.17438,0.1292,0.11744
292.0,0.17193,0.17229,0.10028,0.12234,0.17431,0.1733,0.12886,0.11722
293.0,0.17097,0.17124,0.09992,0.12167,0.17322,0.17228,0.12844,0.11673
294.0,0.16989,0.17011,0.09942,0.12101,0.17218,0.17125,0.12782,0.11626
295.0,0.16891,0.16914,0.09907,0.12038,0.17109,0.17013,0.12722,0.11575
296.0,0.16805,0.16811,0.09872,0.11973,0.17014,0.16913,0.12669,0.11507
297.0,0.16699,0.16718,0.09827,0.11882,0.16906,0.16808,0.12601,0.11432
298.0,0.16607,0.16616,0.09774,0.11802,0.16798,0.16709,0.12534,0.11344
299.0,0.16515,0.16517,0.09732,0.11717,0.16697,0.16601,0.12465,0.1127
300.0,0.16415,0.16422,0.09674,0.11635,0.16589,0.16504,0.12386,0.11196
301.0,0.1634,0.16334,0.09636,0.11554,0.16502,0.16404,0.12326,0.11104
302.0,0.16245,0.16258,0.09591,0.1147,0.16401,0.16323,0.12251,0.11028
303.0,0.16161,0.1615,0.09542,0.11384,0.16306,0.16215,0.12191,0.10946
304.0,0.16079,0.16071,0.09505,0.11316,0.16206,0.16126,0.1212,0.10888
305.0,0.15985,0.15992,0.09458,0.11251,0.16104,0.16042,0.12051,0.10815
306.0,0.15914,0.1593,0.0942,0.11189,0.16021,0.15963,0.11989,0.10758
307.0,0.1584,0.15847,0.09387,0.1113,0.1594,0.15884,0.11933,0.10707
308.0,0.15751,0.15758,0.09347,0.11071,0.15839,0.15793,0.11871,0.10652
309.0,0.15677,0.1569,0.09318,0.11013,0.15747,0.15722,0.11815,0.10616
310.0,0.1561,0.15622,0.09297,0.10974,0.15673,0.15639,0.11769,0.10569
311.0,0.15538,0.15563,0.09266,0.10933,0.15586,0.15571,0.11725,0.10548
312.0,0.15468,0.15477,0.09245,0.10887,0.15518,0.15499,0.11682,0.10511
313.0,0.15383,0.1541,0.09217,0.10836,0.1541,0.15413,0.11629,0.10487
314.0,0.15316,0.15345,0.09187,0.10814,0.15343,0.15359,0.11578,0.10457
315.0,0.15255,0.15293,0.09168,0.10783,0.15271,0.15282,0.11549,0.10441
316.0,0.15207,0.15226,0.09163,0.10758,0.15213,0.15237,0.11518,0.10418
317.0,0.15125,0.15157,0.09123,0.10704,0.15123,0.15154,0.11474,0.10372
318.0,0.1506,0.15092,0.09103,0.10678,0.1505,0.15087,0.11433,0.10353
319.0,0.14992,0.15037,0.09082,0.10664,0.14997,0.15036,0.11394,0.10331
320.0,0.14943,0.14991,0.09072,0.10645,0.14929,0.1498,0.11365,0.10311
321.0,0.14878,0.14918,0.09038,0.10599,0.14857,0.14921,0.11321,0.10275
322.0,0.14819,0.14857,0.0901,0.10557,0.14788,0.14854,0.11296,0.1025
323.0,0.14754,0.14808,0.08999,0.10554,0.14732,0.14809,0.11261,0.10238
324.0,0.14723,0.14761,0.08988,0.10527,0.14692,0.14749,0.11244,0.10208
325.0,0.14651,0.14706,0.08955,0.10495,0.14621,0.14696,0.11197,0.10185
326.0,0.14606,0.14648,0.08932,0.10456,0.14575,0.14646,0.1118,0.10144
327.0,0.14538,0.14592,0.08911,0.10437,0.14512,0.14597,0.11147,0.10129
328.0,0.14494,0.14546,0.08894,0.10415,0.14464,0.14548,0.11118,0.10104
329.0,0.14447,0.14501,0.08876,0.10386,0.14419,0.14499,0.11077,0.10067
330.0,0.1441,0.14461,0.0885,0.10346,0.14371,0.14452,0.11052,0.10031
331.0,0.14361,0.14397,0.08834,0.10317,0.14329,0.14403,0.11037,0.0999
332.0,0.1429,0.14342,0.0882,0.10292,0.14271,0.14354,0.11012,0.09965
333.0,0.14259,0.14309,0.08796,0.10264,0.14237,0.1431,0.10968,0.09923
334.0,0.14214,0.14274,0.08764,0.10227,0.14194,0.14263,0.10935,0.09886
335.0,0.14177,0.14218,0.08766,0.10203,0.14166,0.14232,0.10926,0.09842
336.0,0.14111,0.14167,0.08729,0.10172,0.14109,0.14181,0.10887,0.09815
337.0,0.14076,0.14127,0.08727,0.10138,0.14072,0.14143,0.10872,0.09785
338.0,0.14045,0.14096,0.08699,0.10122,0.14046,0.14097,0.10836,0.09742
339.0,0.14011,0.14064,0.08691,0.10095,0.14015,0.14066,0.10816,0.09718
340.0,0.13971,0.14011,0.08676,0.10063,0.13993,0.14031,0.10801,0.09679
341.0,0.13925,0.13969,0.08652,0.10035,0.13944,0.13983,0.10779,0.09668
342.0,0.13909,0.13933,0.08644,0.10017,0.13921,0.13952,0.10758,0.09622
343.0,0.13873,0.13913,0.0862,0.10001,0.13891,0.13915,0.10732,0.09606
344.0,0.13843,0.13864,0.08618,0.09982,0.13878,0.13896,0.10716,0.09577
345.0,0.13809,0.13831,0.08582,0.09955,0.13846,0.13843,0.10716,0.09555
346.0,0.1378,0.13803,0.08587,0.09939,0.13816,0.13828,0.10686,0.09552
347.0,0.13755,0.13781,0.08573,0.09928,0.13809,0.13797,0.1068,0.09529
348.0,0.13747,0.13749,0.08571,0.09915,0.13783,0.13768,0.10661,0.0951
349.0,0.13717,0.13717,0.08559,0.0989,0.13772,0.13742,0.10663,0.09488
350.0,0.13687,0.13694,0.08535,0.0987,0.13743,0.13711,0.1065,0.09487
351.0,0.13664,0.13669,0.08538,0.0987,0.13704,0.13702,0.10637,0.0947
352.0,0.13651,0.13649,0.08537,0.09856,0.13715,0.13677,0.10628,0.09455
353.0,0.13631,0.1362,0.08523,0.09847,0.13693,0.13649,0.10624,0.09445
354.0,0.13593,0.13592,0.08495,0.09815,0.13663,0.13623,0.10584,0.09418
355.0,0.13571,0.13571,0.08495,0.09802,0.13637,0.13603,0.10592,0.09424
356.0,0.13554,0.1354,0.08498,0.09805,0.13636,0.13581,0.10586,0.09397
357.0,0.13521,0.13517,0.08467,0.09795,0.13602,0.1355,0.10568,0.09396
358.0,0.13495,0.13514,0.08465,0.09782,0.13591,0.13536,0.10559,0.09373
359.0,0.13472,0.13465,0.08445,0.09751,0.13569,0.13501,0.1055,0.09378
360.0,0.13439,0.13448,0.08449,0.09758,0.13535,0.13483,0.10546,0.09358
361.0,0.13421,0.13418,0.08445,0.09744,0.1353,0.13453,0.10538,0.09351
362.0,0.13401,0.13407,0.08428,0.09727,0.135,0.13424,0.10509,0.09338
363.0,0.13375,0.1337,0.08418,0.09712,0.13477,0.13404,0.10514,0.09321
364.0,0.13341,0.13338,0.08405,0.09697,0.13445,0.13374,0.10503,0.09322
365.0,0.13306,0.1332,0.08407,0.09705,0.13419,0.13344,0.10481,0.09309
366.0,0.13297,0.13292,0.08402,0.09694,0.13404,0.13319,0.10474,0.09303
367.0,0.13268,0.13273,0.08386,0.09674,0.13377,0.13287,0.10458,0.09305
368.0,0.13248,0.13228,0.08384,0.09659,0.13351,0.1326,0.10451,0.0929
369.0,0.13198,0.13206,0.08366,0.09652,0.13304,0.13228,0.10424,0.09282
370.0,0.13182,0.13181,0.08379,0.0964,0.13292,0.132,0.10416,0.09279
371.0,0.13167,0.13156,0.08359,0.09628,0.13265,0.13169,0.10402,0.0927
372.0,0.13139,0.13124,0.0836,0.09613,0.13239,0.13139,0.1039,0.09254
373.0,0.13105,0.13089,0.08339,0.09604,0.13196,0.1311,0.1037,0.09254
374.0,0.13069,0.13071,0.08338,0.09591,0.13157,0.13074,0.10361,0.09249
375.0,0.13069,0.13025,0.08338,0.09583,0.13145,0.13048,0.1034,0.09238
376.0,0.13035,0.13007,0.0833,0.0957,0.13122,0.13007,0.10329,0.09222
377.0,0.13007,0.12974,0.08312,0.09555,0.13071,0.12988,0.10297,0.09216
378.0,0.12978,0.12937,0.08301,0.09529,0.13041,0.12941,0.10295,0.09203
379.0,0.12945,0.12911,0.08294,0.09542,0.13007,0.12928,0.10264,0.09197
380.0,0.12941,0.12881,0.08289,0.09517,0.13003,0.12878,0.10267,0.09182
381.0,0.12902,0.12858,0.08278,0.09518,0.12953,0.12853,0.10238,0.09165
382.0,0.12902,0.12822,0.08261,0.09489,0.12931,0.1282,0.10239,0.09154
383.0,0.12858,0.12796,0.08257,0.09475,0.12883,0.12793,0.10215,0.0914
384.0,0.12845,0.12756,0.08247,0.09469,0.12863,0.12763,0.10198,0.09117
385.0,0.12824,0.12744,0.08236,0.09472,0.12838,0.12724,0.10173,0.09119
386.0,0.12802,0.1271,0.08226,0.09446,0.128,0.12703,0.10167,0.09086
387.0,0.12764,0.12664,0.08208,0.0942,0.12771,0.1267,0.10151,0.09087
388.0,0.12739,0.1264,0.08204,0.0942,0.12741,0.12634,0.10131,0.09059
389.0,0.12723,0.12611,0.08192,0.09419,0.12707,0.12606,0.10117,0.09063
390.0,0.1269,0.12599,0.08188,0.09403,0.12692,0.12577,0.10106,0.09047
391.0,0.12668,0.12555,0.08173,0.09377,0.12658,0.1255,0.10087,0.09022
392.0,0.12626,0.12527,0.08154,0.09369,0.1261,0.12521,0.10065,0.09009
393.0,0.12597,0.12492,0.08153,0.09359,0.1259,0.12482,0.10052,0.08999
394.0,0.12569,0.12469,0.08136,0.09357,0.12563,0.12459,0.10028,0.08991
395.0,0.12557,0.12445,0.08141,0.0933,0.12547,0.1243,0.10026,0.08967
396.0,0.12521,0.12402,0.08122,0.09309,0.12511,0.12398,0.10001,0.08958
397.0,0.12479,0.12388,0.08107,0.09314,0.1248,0.12373,0.09986,0.08952
398.0,0.1247,0.12359,0.08109,0.09298,0.12468,0.12348,0.09975,0.08937
399.0,0.12443,0.12337,0.08093,0.09273,0.12441,0.12313,0.09958,0.08912
400.0,0.12421,0.1231,0.08099,0.09265,0.12428,0.12292,0.09945,0.089
401.0,0.12373,0.1227,0.08075,0.09238,0.12392,0.12262,0.09924,0.08886
402.0,0.12356,0.1226,0.08082,0.09241,0.12385,0.12236,0.09912,0.08882
403.0,0.12327,0.12217,0.08069,0.09222,0.12349,0.12208,0.09899,0.08856
404.0,0.12294,0.12211,0.08051,0.09212,0.12326,0.1218,0.09879,0.0884
405.0,0.12253,0.12173,0.08043,0.09189,0.12317,0.12169,0.09866,0.08821
406.0,0.1222,0.12148,0.08022,0.09176,0.12278,0.12132,0.09836,0.08822
407.0,0.12182,0.12115,0.08022,0.09149,0.12257,0.12105,0.09821,0.08789
408.0,0.12165,0.12093,0.08014,0.0915,0.12248,0.12084,0.09804,0.08776
409.0,0.12138,0.12085,0.07997,0.09135,0.12218,0.12064,0.0979,0.08772
410.0,0.12118,0.12038,0.07996,0.091,0.12213,0.12031,0.09773,0.08755
411.0,0.12064,0.12022,0.07979,0.09088,0.12168,0.12006,0.09758,0.08753
412.0,0.1204,0.11986,0.07972,0.0908,0.12136,0.11977,0.09736,0.08727
413.0,0.12024,0.11982,0.07953,0.09072,0.12135,0.11963,0.09724,0.08741
414.0,0.12006,0.1195,0.07949,0.09045,0.1212,0.1193,0.09719,0.08715
415.0,0.11969,0.11923,0.07942,0.09033,0.12094,0.1191,0.09705,0.08723
416.0,0.1194,0.11909,0.07936,0.09022,0.1206,0.11894,0.09673,0.08715
417.0,0.11921,0.11867,0.07911,0.09004,0.12034,0.11864,0.0966,0.08708
418.0,0.11907,0.11867,0.07904,0.08982,0.12017,0.11846,0.09648,0.08708
419.0,0.11881,0.11836,0.079,0.08972,0.12001,0.1182,0.09636,0.08696
420.0,0.11846,0.11823,0.07892,0.08958,0.11971,0.11817,0.09626,0.08685
421.0,0.11816,0.11786,0.07876,0.08946,0.11927,0.11783,0.09604,0.08665
422.0,0.11813,0.11784,0.07855,0.0893,0.11935,0.11779,0.09601,0.0867
423.0,0.11782,0.11762,0.07856,0.08904,0.11903,0.11742,0.09585,0.08632
424.0,0.11763,0.11738,0.07834,0.08871,0.11892,0.11743,0.09576,0.0862
425.0,0.11721,0.11723,0.07818,0.08878,0.11873,0.11728,0.09556,0.08589
426.0,0.11727,0.11721,0.07817,0.08852,0.11864,0.11707,0.09542,0.08575
427.0,0.11706,0.11706,0.07805,0.08841,0.11851,0.11694,0.09532,0.08568
428.0,0.11703,0.11683,0.078,0.08828,0.11829,0.11683,0.09528,0.08537
429.0,0.11651,0.11659,0.07796,0.088,0.11803,0.11673,0.09511,0.08513
430.0,0.11657,0.11646,0.07763,0.0881,0.11803,0.11652,0.09492,0.08495
431.0,0.11656,0.11649,0.07768,0.08791,0.11798,0.11639,0.09489,0.0849
432.0,0.11619,0.1162,0.07764,0.08796,0.11772,0.11635,0.09455,0.08461
433.0,0.11619,0.11607,0.07739,0.08759,0.11789,0.11626,0.09476,0.08462
434.0,0.11583,0.11594,0.07761,0.08743,0.11755,0.11609,0.09455,0.08426
435.0,0.11604,0.11597,0.07757,0.08744,0.11763,0.11593,0.0945,0.08437
436.0,0.11556,0.11621,0.0775,0.08745,0.11736,0.11596,0.09438,0.08413
437.0,0.11575,0.11551,0.07754,0.08707,0.11762,0.11569,0.09441,0.08388
438.0,0.11539,0.1156,0.07754,0.08696,0.11724,0.11566,0.09429,0.08396
439.0,0.11535,0.11538,0.07752,0.08692,0.11722,0.11551,0.09405,0.08382
440.0,0.1152,0.11537,0.07737,0.08684,0.11719,0.11557,0.09394,0.0837
441.0,0.11507,0.11539,0.0776,0.08654,0.11713,0.11534,0.09387,0.08351
442.0,0.11517,0.11518,0.07733,0.08649,0.11709,0.11525,0.09386,0.08348
443.0,0.11475,0.11529,0.07727,0.08636,0.1169,0.11533,0.09361,0.08348
444.0,0.11482,0.11526,0.07718,0.08634,0.11694,0.11528,0.09353,0.08332
445.0,0.11453,0.11529,0.07705,0.08604,0.11684,0.11528,0.09337,0.08322
446.0,0.1145,0.11501,0.07693,0.08578,0.11689,0.11497,0.09335,0.08288
447.0,0.11448,0.11505,0.07676,0.08567,0.11679,0.11517,0.09329,0.08307
448.0,0.11425,0.11515,0.07675,0.0858,0.11678,0.11518,0.09319,0.08278
449.0,0.11428,0.1151,0.07653,0.08561,0.11679,0.11527,0.09311,0.08293
450.0,0.11428,0.11524,0.07641,0.08554,0.11689,0.11527,0.09304,0.08277
451.0,0.11435,0.11505,0.0763,0.08524,0.11688,0.11511,0.09298,0.0825
452.0,0.11427,0.11498,0.07622,0.08493,0.11696,0.11513,0.09296,0.08234
453.0,0.11402,0.11519,0.07597,0.08519,0.11687,0.11535,0.09276,0.08249
454.0,0.11427,0.1153,0.07609,0.08511,0.11731,0.11541,0.09298,0.0824
455.0,0.11418,0.11567,0.07572,0.08503,0.11715,0.11553,0.09274,0.08235
456.0,0.1144,0.11529,0.07569,0.08462,0.1174,0.11543,0.09271,0.08211
457.0,0.11422,0.11551,0.07537,0.08465,0.11742,0.11567,0.09286,0.08192
458.0,0.11441,0.11544,0.07568,0.08473,0.11751,0.11569,0.09266,0.08202
459.0,0.11444,0.11584,0.07535,0.08448,0.11774,0.11603,0.0927,0.08202
460.0,0.11451,0.11603,0.07539,0.08459,0.11786,0.11611,0.09259,0.08187
461.0,0.1145,0.11602,0.07529,0.08429,0.11804,0.1162,0.09273,0.08163
462.0,0.11438,0.11615,0.07494,0.08408,0.11791,0.11643,0.09253,0.08176
463.0,0.11476,0.11618,0.07514,0.08422,0.11844,0.11645,0.09254,0.08162
464.0,0.11509,0.11683,0.07513,0.08419,0.11865,0.11697,0.09271,0.08172
465.0,0.11513,0.11689,0.07511,0.08426,0.11902,0.11715,0.0927,0.08169
466.0,0.11532,0.11716,0.07506,0.08383,0.11923,0.11736,0.09311,0.08158
467.0,0.11533,0.11735,0.07491,0.08397,0.11916,0.11763,0.09255,0.08157
468.0,0.11572,0.11767,0.07513,0.08389,0.11973,0.11803,0.09275,0.08152
469.0,0.11596,0.11804,0.07493,0.08404,0.11999,0.11828,0.0929,0.08146
470.0,0.11612,0.11817,0.07488,0.08386,0.12047,0.11842,0.09294,0.08139
471.0,0.11643,0.11871,0.07486,0.08368,0.12054,0.119,0.09304,0.0814
472.0,0.11669,0.11899,0.07496,0.08387,0.12115,0.11941,0.09308,0.08141
473.0,0.11718,0.1197,0.07498,0.08402,0.12169,0.11989,0.09333,0.08139
474.0,0.11746,0.11999,0.07499,0.08399,0.12209,0.12041,0.09325,0.08135
475.0,0.11802,0.12045,0.07512,0.08373,0.12244,0.12085,0.09359,0.08139
476.0,0.11829,0.12105,0.07496,0.08391,0.12291,0.12155,0.09373,0.08143
477.0,0.11864,0.12144,0.07515,0.08401,0.12371,0.12205,0.09385,0.08135
478.0,0.11939,0.12246,0.07509,0.08432,0.12439,0.12286,0.0941,0.08152
479.0,0.11983,0.12312,0.07531,0.08413,0.12501,0.12351,0.09432,0.0813
480.0,0.12047,0.12358,0.07523,0.08387,0.12584,0.12412,0.09467,0.08134
481.0,0.12064,0.12436,0.07532,0.08421,0.12634,0.12494,0.09476,0.08147
482.0,0.12152,0.1251,0.07543,0.08449,0.1271,0.12569,0.09496,0.08161
483.0,0.12208,0.12601,0.07562,0.0847,0.12806,0.1266,0.09535,0.08165
484.0,0.1228,0.12653,0.07563,0.08451,0.12866,0.12699,0.09559,0.08165
485.0,0.12334,0.12754,0.07567,0.08471,0.12945,0.12818,0.09598,0.08183
486.0,0.1238,0.12824,0.07584,0.08511,0.13022,0.12904,0.09607,0.0819
487.0,0.12509,0.12967,0.07629,0.08515,0.13157,0.13023,0.0967,0.0821
488.0,0.1257,0.13047,0.07646,0.08523,0.13249,0.13105,0.09693,0.08199
489.0,0.12655,0.1317,0.0764,0.08545,0.13352,0.13232,0.09737,0.08244
490.0,0.12694,0.13291,0.07654,0.08595,0.13423,0.13366,0.09759,0.08262
491.0,0.12814,0.13395,0.07683,0.08618,0.13562,0.13467,0.0981,0.08283
492.0,0.12896,0.13528,0.07721,0.08642,0.13679,0.13591,0.09869,0.08282
493.0,0.12975,0.13625,0.07739,0.08647,0.13784,0.13694,0.09879,0.08305
494.0,0.13069,0.13753,0.07769,0.08696,0.13869,0.13834,0.09947,0.08341
495.0,0.13127,0.13848,0.07778,0.0872,0.1397,0.13937,0.09981,0.08352
496.0,0.13248,0.14,0.07821,0.08739,0.1412,0.14064,0.10036,0.08385
497.0,0.13325,0.14156,0.07842,0.08778,0.14222,0.14213,0.10061,0.08406
498.0,0.13421,0.14262,0.07875,0.08804,0.14351,0.14343,0.10124,0.08453
499.0,0.13524,0.14415,0.07903,0.08817,0.14477,0.14505,0.10197,0.08488
500.0,0.13608,0.1455,0.07924,0.08871,0.14608,0.14644,0.10226,0.08506
501.0,0.13731,0.1473,0.07957,0.08913,0.14752,0.14817,0.10279,0.08546
502.0,0.13806,0.14845,0.07976,0.08946,0.14835,0.14921,0.10322,0.08577
503.0,0.13902,0.1498,0.08011,0.08953,0.14975,0.15067,0.10375,0.08613
504.0,0.1397,0.15111,0.08011,0.09001,0.15072,0.15201,0.10428,0.0864
505.0,0.14078,0.15249,0.08064,0.0904,0.15197,0.15341,0.10467,0.08674
506.0,0.14172,0.15389,0.08068,0.09071,0.15311,0.1548,0.10521,0.08689
507.0,0.14243,0.15477,0.08098,0.09092,0.15393,0.15583,0.10565,0.08715
508.0,0.14334,0.15626,0.08142,0.09107,0.15515,0.15713,0.10615,0.08766
509.0,0.14387,0.15742,0.08156,0.09152,0.15576,0.15815,0.10653,0.0877
510.0,0.14487,0.15862,0.08192,0.09188,0.15709,0.15946,0.10679,0.08801
511.0,0.14532,0.15955,0.08202,0.09219,0.15748,0.16058,0.1074,0.08815
512.0,0.14607,0.16044,0.08246,0.09196,0.15872,0.1613,0.10778,0.08839
513.0,0.14649,0.16142,0.08242,0.0925,0.15907,0.1623,0.10817,0.0886
514.0,0.14716,0.16213,0.08302,0.09283,0.15987,0.16302,0.10846,0.08874
515.0,0.14776,0.16318,0.08293,0.09312,0.16037,0.16398,0.10868,0.08901
516.0,0.14785,0.16366,0.08327,0.09312,0.1608,0.16454,0.10902,0.08916
517.0,0.14882,0.16414,0.08362,0.09296,0.16161,0.16493,0.10945,0.08929
518.0,0.14863,0.16482,0.08344,0.09376,0.16143,0.1655,0.10963,0.08943
519.0,0.14895,0.1651,0.08356,0.09383,0.16181,0.16584,0.10976,0.08968
520.0,0.14894,0.16467,0.08355,0.09398,0.16107,0.16532,0.11005,0.08977
521.0,0.14841,0.16441,0.08384,0.09372,0.1611,0.16516,0.1102,0.0898
522.0,0.14848,0.16483,0.08371,0.09424,0.16126,0.16533,0.11048,0.08996
523.0,0.14814,0.16492,0.0838,0.0944,0.16085,0.16543,0.11034,0.09003
524.0,0.14836,0.16453,0.08387,0.09434,0.16078,0.16519,0.1105,0.09009
525.0,0.14822,0.16448,0.08406,0.09445,0.16073,0.16509,0.11076,0.09013
526.0,0.14846,0.16398,0.08435,0.09439,0.16055,0.16436,0.11085,0.09009
527.0,0.14789,0.16389,0.08386,0.09452,0.15985,0.16427,0.11074,0.09022
528.0,0.14732,0.16301,0.0841,0.0945,0.15932,0.16357,0.11076,0.09018
529.0,0.14746,0.16291,0.08428,0.09469,0.15916,0.16311,0.11104,0.09043
530.0,0.14689,0.16207,0.08425,0.09478,0.15838,0.16237,0.11069,0.09021
531.0,0.14672,0.16142,0.08421,0.09474,0.15783,0.16151,0.10986,0.09029
532.0,0.1458,0.16048,0.08394,0.09458,0.15685,0.16065,0.10982,0.09027
533.0,0.14567,0.15957,0.08431,0.0946,0.1563,0.15933,0.10981,0.09027
534.0,0.1451,0.15893,0.08422,0.09497,0.15565,0.15891,0.10987,0.09036
535.0,0.14485,0.1576,0.08442,0.09462,0.15492,0.15746,0.10988,0.09027
536.0,0.14412,0.15662,0.08354,0.09362,0.15406,0.15643,0.10977,0.09032
537.0,0.14317,0.15508,0.08326,0.09369,0.15273,0.15503,0.10961,0.09024
538.0,0.14299,0.15429,0.08336,0.09384,0.15234,0.15371,0.10972,0.09001
539.0,0.14244,0.15302,0.08335,0.09373,0.15143,0.15256,0.10975,0.08904
540.0,0.1417,0.15142,0.0832,0.0933,0.15061,0.15089,0.1094,0.08911
541.0,0.14105,0.14999,0.08315,0.09328,0.14967,0.14939,0.1096,0.08895
542.0,0.14037,0.14872,0.08309,0.09344,0.14859,0.14793,0.10949,0.08894
543.0,0.13983,0.14774,0.08317,0.09345,0.1479,0.14666,0.10947,0.08893
544.0,0.13921,0.1457,0.08302,0.0931,0.14705,0.14489,0.10926,0.08886
545.0,0.13836,0.1442,0.08303,0.093,0.14622,0.14321,0.10921,0.08882
546.0,0.13778,0.14266,0.08295,0.09307,0.14529,0.14171,0.1094,0.08878
547.0,0.137,0.14132,0.08286,0.09294,0.14441,0.13987,0.10924,0.08877
548.0,0.13673,0.1397,0.08284,0.09279,0.14384,0.13848,0.10928,0.08865
549.0,0.13592,0.13807,0.08273,0.09278,0.14281,0.13687,0.10898,0.08867
550.0,0.13534,0.13646,0.08258,0.09254,0.14196,0.13504,0.10916,0.08865
551.0,0.13448,0.13513,0.08232,0.09282,0.14107,0.13357,0.10899,0.0887
552.0,0.13424,0.13349,0.08266,0.09238,0.14066,0.13172,0.10917,0.08848
553.0,0.13361,0.13189,0.08242,0.09258,0.13981,0.13039,0.10897,0.08858
554.0,0.1331,0.13012,0.08239,0.09244,0.13901,0.12853,0.10904,0.08855
555.0,0.13238,0.12886,0.08214,0.09219,0.13835,0.12699,0.10916,0.08869
556.0,0.13193,0.12714,0.08236,0.09235,0.13776,0.12517,0.10916,0.08842
557.0,0.1315,0.1256,0.0824,0.09226,0.13736,0.12368,0.10933,0.08846
558.0,0.131,0.12395,0.08227,0.09228,0.1365,0.1221,0.10918,0.08842
559.0,0.13123,0.12345,0.08301,0.09291,0.13695,0.12116,0.11022,0.08937
560.0,0.13078,0.12177,0.08313,0.09316,0.13631,0.11978,0.11031,0.08927
561.0,0.1304,0.12049,0.08333,0.09299,0.13583,0.11803,0.11046,0.0892
562.0,0.12991,0.11913,0.08313,0.09324,0.13531,0.11681,0.1103,0.08932
563.0,0.12936,0.11743,0.08319,0.09288,0.13464,0.11495,0.11032,0.08917
564.0,0.12899,0.11608,0.0832,0.09273,0.13431,0.11349,0.1105,0.08924
565.0,0.12826,0.1144,0.08302,0.09289,0.13375,0.11194,0.11057,0.08902
566.0,0.12797,0.11342,0.0834,0.09312,0.13331,0.1106,0.11063,0.08937
567.0,0.12756,0.1118,0.08332,0.09276,0.13267,0.1091,0.11068,0.08885
568.0,0.12731,0.11047,0.08346,0.09262,0.13244,0.10771,0.11087,0.08918
569.0,0.12662,0.10903,0.08364,0.09271,0.13221,0.10615,0.11101,0.0889
570.0,0.12593,0.10777,0.08359,0.09295,0.13139,0.10484,0.11104,0.08927
571.0,0.12597,0.10672,0.08381,0.09273,0.13134,0.10371,0.1113,0.08914
572.0,0.12542,0.10513,0.08361,0.09242,0.13075,0.10212,0.11126,0.08878
573.0,0.12507,0.10369,0.08373,0.09239,0.13059,0.10072,0.1114,0.08891
574.0,0.12437,0.10278,0.0834,0.09274,0.12991,0.09972,0.11163,0.08912
575.0,0.12429,0.10153,0.08346,0.09285,0.12978,0.09836,0.11195,0.08909
576.0,0.1239,0.10037,0.08345,0.09253,0.12942,0.09714,0.11199,0.08895
577.0,0.12352,0.099,0.0832,0.09257,0.12899,0.09588,0.11193,0.08904
578.0,0.12306,0.09792,0.08325,0.09258,0.12868,0.0948,0.11226,0.08909
579.0,0.12272,0.09688,0.08306,0.09277,0.12808,0.09361,0.11247,0.08907
580.0,0.1223,0.09573,0.0832,0.09263,0.12803,0.09232,0.11278,0.08918
581.0,0.12189,0.0947,0.08318,0.09281,0.12788,0.09137,0.11288,0.0891
582.0,0.12157,0.09352,0.08326,0.09272,0.12725,0.09031,0.11308,0.08918
583.0,0.1215,0.09266,0.08328,0.09287,0.12703,0.0894,0.11359,0.08935
584.0,0.12099,0.09124,0.08311,0.09282,0.12657,0.08806,0.1139,0.08918
585.0,0.12067,0.09053,0.08326,0.09293,0.12658,0.08704,0.11392,0.08935
586.0,0.12047,0.08943,0.0834,0.09299,0.12608,0.08611,0.11436,0.08908
587.0,0.12027,0.08863,0.08359,0.09312,0.12589,0.08521,0.11475,0.08949
588.0,0.11979,0.08748,0.08319,0.09315,0.12537,0.08398,0.11511,0.08952
589.0,0.11929,0.08662,0.08322,0.09313,0.12496,0.08303,0.11507,0.0896
590.0,0.11921,0.08581,0.08333,0.09347,0.12466,0.08239,0.11556,0.08985
591.0,0.11885,0.08474,0.08359,0.09329,0.12438,0.08139,0.11568,0.08938
592.0,0.11861,0.08423,0.08345,0.0936,0.12412,0.08055,0.11615,0.09002
593.0,0.11805,0.0828,0.08334,0.09365,0.12358,0.07962,0.11635,0.08972
594.0,0.11807,0.08256,0.08368,0.09391,0.12346,0.07907,0.11675,0.09006
595.0,0.11782,0.08163,0.08379,0.09404,0.12323,0.07813,0.1172,0.08992
596.0,0.11758,0.08088,0.08393,0.09417,0.1229,0.07717,0.11763,0.09021
597.0,0.11688,0.07993,0.08381,0.09419,0.12258,0.07648,0.11787,0.09033
598.0,0.1168,0.07904,0.08391,0.09436,0.12202,0.07562,0.11835,0.09035
599.0,0.11653,0.07892,0.0842,0.09488,0.12195,0.07517,0.11873,0.09074
600.0,0.1161,0.07777,0.08425,0.09491,0.12148,0.07433,0.11894,0.09049
601.0,0.11588,0.07712,0.08442,0.09496,0.12116,0.0733,0.11936,0.09087
602.0,0.11524,0.07612,0.08435,0.09506,0.12058,0.07294,0.11968,0.09097
603.0,0.11544,0.07593,0.08453,0.09549,0.12025,0.07221,0.12016,0.09128
604.0,0.11468,0.07531,0.08469,0.0956,0.11986,0.07174,0.1203,0.09139
605.0,0.1149,0.07422,0.08516,0.09557,0.11986,0.07069,0.12106,0.09139
606.0,0.11441,0.07357,0.08504,0.09551,0.11917,0.07003,0.12123,0.09151
607.0,0.11386,0.07304,0.08499,0.09569,0.11854,0.06965,0.12154,0.09182
608.0,0.1137,0.07256,0.08516,0.09604,0.11817,0.06883,0.12192,0.09191
609.0,0.1136,0.07196,0.08539,0.09587,0.11781,0.06832,0.12236,0.09167
610.0,0.11345,0.07116,0.08552,0.09582,0.11752,0.06762,0.12271,0.09212
611.0,0.11269,0.07064,0.08553,0.0961,0.11695,0.06733,0.12299,0.09213
612.0,0.11225,0.07015,0.08538,0.09617,0.1161,0.06637,0.1231,0.09222
613.0,0.11246,0.06995,0.08565,0.0965,0.11598,0.06605,0.12357,0.09218
614.0,0.11197,0.06885,0.08567,0.09595,0.11535,0.06527,0.12376,0.09187
615.0,0.11186,0.06874,0.08592,0.09637,0.11509,0.06512,0.12418,0.09231
616.0,0.11134,0.06788,0.08583,0.09612,0.11447,0.06424,0.12476,0.09216
617.0,0.11119,0.06761,0.08583,0.09646,0.1137,0.06377,0.12483,0.09224
618.0,0.11103,0.06695,0.0861,0.09625,0.11365,0.06344,0.12538,0.09203
619.0,0.11072,0.06631,0.08588,0.09629,0.11286,0.06288,0.12531,0.09199
620.0,0.11026,0.066,0.08612,0.09635,0.11251,0.06233,0.12582,0.09241
621.0,0.11,0.06541,0.08592,0.09638,0.11177,0.06189,0.12626,0.09224
622.0,0.10999,0.06517,0.08629,0.09658,0.11132,0.0614,0.12656,0.09238
623.0,0.10968,0.06442,0.08633,0.09626,0.11084,0.06075,0.12684,0.09211
624.0,0.10944,0.06399,0.08647,0.09642,0.1104,0.06056,0.12718,0.09227
625.0,0.10906,0.06352,0.08648,0.09631,0.10984,0.06008,0.12755,0.09245
626.0,0.10886,0.06298,0.08642,0.09645,0.10904,0.05962,0.12779,0.09217
627.0,0.10874,0.06297,0.08689,0.0967,0.10882,0.05911,0.12815,0.09244
628.0,0.10844,0.0621,0.08678,0.09662,0.10794,0.05882,0.12843,0.09227
629.0,0.10827,0.06197,0.08709,0.09677,0.10762,0.0583,0.12877,0.09271
630.0,0.10775,0.06125,0.08683,0.09672,0.10662,0.05791,0.12904,0.09228
631.0,0.10769,0.06116,0.0872,0.09718,0.1063,0.05749,0.12941,0.09269
632.0,0.10738,0.0606,0.08739,0.09709,0.10561,0.05729,0.12966,0.09255
633.0,0.10742,0.06021,0.08768,0.0972,0.10528,0.05658,0.13023,0.09261
634.0,0.10689,0.05979,0.08775,0.09742,0.10458,0.05644,0.13054,0.09284
635.0,0.10666,0.05931,0.08775,0.09758,0.10383,0.05591,0.1308,0.09285
636.0,0.10656,0.05934,0.08814,0.09801,0.10339,0.05586,0.131,0.09324
637.0,0.10621,0.05862,0.08822,0.09789,0.10254,0.05527,0.13147,0.09303
638.0,0.10626,0.05835,0.08855,0.09826,0.10226,0.05503,0.13204,0.09357
639.0,0.10543,0.05793,0.08834,0.09853,0.10132,0.05464,0.13214,0.09358
640.0,0.10567,0.05782,0.08875,0.09885,0.10105,0.05428,0.13266,0.09413
641.0,0.10516,0.05722,0.08885,0.099,0.10004,0.05395,0.13286,0.09422
642.0,0.10499,0.05693,0.08919,0.09936,0.09969,0.05359,0.13341,0.09441
643.0,0.10467,0.0567,0.08917,0.09983,0.09875,0.05326,0.13321,0.09486
644.0,0.10447,0.05635,0.0894,0.0998,0.09844,0.05297,0.13399,0.09517
645.0,0.10442,0.05611,0.08951,0.10055,0.09771,0.05275,0.13445,0.09574
646.0,0.10395,0.05556,0.08973,0.10049,0.09697,0.05223,0.13472,0.09567
647.0,0.10387,0.05541,0.08986,0.10117,0.09661,0.05183,0.13508,0.09602
648.0,0.10361,0.05493,0.08999,0.10134,0.09582,0.05179,0.13538,0.09643
649.0,0.10332,0.05478,0.09012,0.10159,0.09527,0.05145,0.13582,0.09681
650.0,0.10327,0.05449,0.09049,0.10203,0.09483,0.05114,0.13618,0.09734
651.0,0.1029,0.0541,0.09074,0.10221,0.09437,0.05086,0.13646,0.09725
652.0,0.10281,0.05389,0.09088,0.10264,0.09356,0.0507,0.13651,0.09779
653.0,0.10227,0.05327,0.09092,0.10246,0.09287,0.0501,0.13695,0.09803
654.0,0.10213,0.05323,0.09095,0.10307,0.09249,0.04988,0.13724,0.09858
655.0,0.10192,0.05298,0.09147,0.10328,0.09181,0.04969,0.1375,0.09873
656.0,0.10165,0.05281,0.09175,0.10391,0.09136,0.04955,0.13751,0.09922
657.0,0.10149,0.05239,0.0917,0.10373,0.09058,0.04916,0.13779,0.0994
658.0,0.10092,0.05195,0.09172,0.10389,0.08987,0.04879,0.13797,0.09975
659.0,0.10095,0.05228,0.09198,0.10454,0.0893,0.04883,0.13813,0.10021
660.0,0.1006,0.05157,0.09212,0.10459,0.08876,0.04843,0.13815,0.10002
661.0,0.10047,0.05134,0.09223,0.10459,0.08806,0.04818,0.1382,0.10035
662.0,0.10028,0.05103,0.09248,0.10473,0.08749,0.04796,0.13866,0.10048
663.0,0.0997,0.05093,0.0923,0.10499,0.08682,0.04765,0.1384,0.10076
664.0,0.09966,0.05062,0.09272,0.10511,0.08598,0.04737,0.1385,0.10046
665.0,0.09938,0.0504,0.09282,0.10516,0.0857,0.04722,0.13849,0.10052
666.0,0.09949,0.05013,0.0931,0.10505,0.08518,0.04707,0.1387,0.10046
667.0,0.09873,0.04988,0.09291,0.10493,0.08445,0.04675,0.13828,0.10048
668.0,0.09885,0.04993,0.09319,0.10516,0.08395,0.04671,0.13832,0.10026
669.0,0.09829,0.04941,0.09295,0.10484,0.08316,0.04644,0.13794,0.10004
670.0,0.09821,0.04923,0.09284,0.10442,0.08269,0.04616,0.13777,0.09953
671.0,0.098,0.04915,0.09299,0.10423,0.08238,0.04596,0.13763,0.09933
672.0,0.09748,0.04912,0.09295,0.1041,0.08155,0.04572,0.13717,0.09901
673.0,0.09761,0.04895,0.09259,0.10386,0.08091,0.0458,0.13688,0.09838
674.0,0.0974,0.04852,0.09283,0.10314,0.08056,0.04531,0.13647,0.0976
675.0,0.09727,0.04838,0.09271,0.10271,0.0802,0.0454,0.1362,0.09699
676.0,0.09671,0.0484,0.09232,0.10227,0.07941,0.04494,0.13539,0.09649
677.0,0.09662,0.04785,0.09234,0.10188,0.07892,0.04504,0.13517,0.09578
678.0,0.09615,0.04778,0.09166,0.10113,0.0781,0.0447,0.13444,0.0949
679.0,0.09593,0.04763,0.09176,0.10051,0.07773,0.04443,0.13399,0.09413
680.0,0.09565,0.04765,0.09149,0.10004,0.07715,0.04448,0.13326,0.09355
681.0,0.09509,0.04752,0.09118,0.09949,0.07639,0.04425,0.13299,0.09289
682.0,0.09524,0.04695,0.09091,0.09881,0.07604,0.04419,0.13247,0.09211
683.0,0.09474,0.04689,0.09066,0.09803,0.07538,0.04387,0.13184,0.09113
684.0,0.09443,0.04702,0.09057,0.0979,0.07512,0.04388,0.13158,0.09075
685.0,0.09414,0.04676,0.0903,0.09741,0.07425,0.04369,0.13127,0.0902
686.0,0.09374,0.04637,0.09025,0.09666,0.07403,0.04336,0.131,0.08959
687.0,0.09391,0.04627,0.09028,0.09637,0.07365,0.04335,0.13044,0.08896
688.0,0.09358,0.04623,0.09011,0.09602,0.07287,0.04322,0.12994,0.08842
689.0,0.09359,0.04624,0.09009,0.09585,0.07284,0.04327,0.1298,0.08802
690.0,0.09292,0.04589,0.0897,0.09517,0.07184,0.04264,0.12877,0.08762
691.0,0.09314,0.04575,0.08992,0.09495,0.07175,0.0427,0.12867,0.08703
692.0,0.09271,0.04562,0.08958,0.09475,0.0709,0.04264,0.12789,0.08665
693.0,0.09257,0.04561,0.08963,0.09479,0.07079,0.04272,0.12734,0.08659
694.0,0.09253,0.04532,0.08978,0.09425,0.07038,0.0423,0.12657,0.08605
695.0,0.09213,0.04502,0.08973,0.09399,0.06976,0.04206,0.12617,0.08583
696.0,0.09196,0.0449,0.0895,0.09426,0.06916,0.04224,0.12519,0.08561
697.0,0.09162,0.04477,0.08937,0.09403,0.06864,0.04184,0.12468,0.08546
698.0,0.0918,0.04488,0.08986,0.09407,0.06852,0.04197,0.12422,0.08517
699.0,0.09138,0.04433,0.08972,0.09345,0.06778,0.04151,0.12364,0.08502
700.0,0.09118,0.0446,0.08974,0.09399,0.06748,0.04168,0.1231,0.08508
701.0,0.09091,0.04413,0.08932,0.09376,0.0669,0.04134,0.12253,0.08505
702.0,0.09072,0.04455,0.08968,0.09386,0.0665,0.04155,0.12194,0.08504
703.0,0.09068,0.04382,0.09,0.09339,0.0663,0.041,0.12158,0.08453
704.0,0.09038,0.04387,0.08976,0.09357,0.06575,0.04121,0.12112,0.08485
705.0,0.08901,0.04188,0.08815,0.09174,0.06378,0.03915,0.1191,0.08298
706.0,0.08844,0.04403,0.08825,0.09237,0.06346,0.04109,0.11864,0.08339
707.0,0.09053,0.04371,0.09026,0.09383,0.06498,0.04082,0.11852,0.08485
708.0,0.09002,0.04346,0.09024,0.09379,0.0645,0.04046,0.11987,0.08483
709.0,0.08998,0.04355,0.0901,0.09399,0.06404,0.04062,0.11941,0.0848
710.0,0.08966,0.0433,0.09014,0.09401,0.06352,0.04039,0.11883,0.08481
711.0,0.08966,0.04334,0.09042,0.09389,0.06349,0.04048,0.11858,0.08474
712.0,0.08972,0.04308,0.09053,0.09386,0.06322,0.04014,0.11834,0.08465
713.0,0.08925,0.04292,0.0906,0.09382,0.0628,0.04006,0.11799,0.08433
714.0,0.08926,0.043,0.09047,0.09426,0.06236,0.04011,0.11754,0.08465
715.0,0.0889,0.04308,0.09053,0.09431,0.06192,0.04005,0.11725,0.08466
716.0,0.08919,0.04254,0.09106,0.09424,0.06202,0.03971,0.11692,0.08414
717.0,0.0889,0.04247,0.09083,0.0942,0.06152,0.0396,0.11673,0.08424
718.0,0.08821,0.04258,0.0908,0.09452,0.0612,0.0396,0.11608,0.08444
719.0,0.08806,0.0425,0.09089,0.0946,0.06054,0.03971,0.11597,0.08442
720.0,0.08808,0.04228,0.0912,0.09458,0.0607,0.03944,0.11549,0.08424
721.0,0.08787,0.042,0.09143,0.09461,0.06035,0.03929,0.11457,0.08399
722.0,0.08604,0.04202,0.08996,0.09467,0.05973,0.03898,0.11382,0.08441
723.0,0.08623,0.04197,0.09057,0.09391,0.05965,0.03904,0.11358,0.08375
724.0,0.08597,0.04186,0.09062,0.09389,0.05861,0.03893,0.1133,0.0833
725.0,0.08544,0.04172,0.0909,0.09392,0.05799,0.03897,0.11283,0.08333
726.0,0.08523,0.04157,0.09055,0.09392,0.05761,0.03846,0.11245,0.08353
727.0,0.08506,0.04135,0.09101,0.09414,0.05733,0.03862,0.11228,0.08387
728.0,0.08493,0.04138,0.09075,0.09417,0.05711,0.03866,0.11147,0.08345
729.0,0.0844,0.04021,0.09071,0.09434,0.05664,0.03865,0.11153,0.08384
730.0,0.08417,0.04027,0.09089,0.09434,0.05627,0.03829,0.11071,0.0837
731.0,0.08415,0.04002,0.09116,0.09432,0.05609,0.03734,0.11103,0.08387
732.0,0.08349,0.03985,0.09105,0.09443,0.05554,0.03744,0.11021,0.08383
733.0,0.08385,0.03992,0.09123,0.0945,0.05556,0.03723,0.11055,0.0837
734.0,0.08439,0.04085,0.0922,0.09556,0.05594,0.03806,0.11062,0.08477
735.0,0.08418,0.04065,0.09255,0.09564,0.05614,0.03782,0.11039,0.08442
736.0,0.08355,0.04008,0.09241,0.09539,0.05542,0.03754,0.11004,0.08461
737.0,0.08377,0.04044,0.09292,0.09583,0.0554,0.03769,0.10988,0.0846
738.0,0.08337,0.04037,0.09287,0.09581,0.05495,0.0376,0.10953,0.08481
739.0,0.08316,0.04014,0.09305,0.09608,0.05476,0.0375,0.10889,0.08485
740.0,0.08297,0.0399,0.09339,0.09597,0.05437,0.03739,0.10866,0.08482
741.0,0.08261,0.04036,0.09342,0.09631,0.05399,0.03772,0.10841,0.08536
742.0,0.08288,0.04009,0.09379,0.09637,0.05408,0.03756,0.10833,0.08542
743.0,0.08224,0.04007,0.09345,0.0965,0.05334,0.0373,0.10781,0.08537
744.0,0.08234,0.03976,0.09397,0.09641,0.05368,0.03716,0.10767,0.08523
745.0,0.0819,0.03966,0.09379,0.09635,0.05317,0.03696,0.10754,0.08535
746.0,0.08172,0.03994,0.0939,0.09682,0.05305,0.03722,0.1071,0.08594
747.0,0.08155,0.03953,0.09389,0.09677,0.05256,0.03696,0.10685,0.08562
748.0,0.08139,0.03987,0.09417,0.0971,0.05244,0.03717,0.10661,0.08584
749.0,0.08144,0.03946,0.09471,0.09696,0.05236,0.03677,0.10652,0.08561
750.0,0.08071,0.03973,0.09455,0.09722,0.05188,0.03704,0.10604,0.08614
751.0,0.08104,0.03927,0.09496,0.0971,0.05207,0.03689,0.10606,0.0861
752.0,0.08067,0.03958,0.09491,0.09724,0.05159,0.03697,0.10584,0.08597
753.0,0.08061,0.03919,0.09496,0.09714,0.05145,0.03666,0.10529,0.08555
754.0,0.0806,0.03944,0.095,0.09735,0.05121,0.03679,0.10537,0.08609
755.0,0.07988,0.03914,0.09486,0.09749,0.05106,0.03677,0.10474,0.08623
756.0,0.08032,0.03939,0.0954,0.09755,0.05098,0.03675,0.10486,0.08617
757.0,0.0799,0.03913,0.095,0.09775,0.05051,0.03677,0.10443,0.08609
758.0,0.07984,0.03933,0.09542,0.09788,0.05061,0.03667,0.10426,0.08621
759.0,0.07962,0.03896,0.09533,0.09776,0.05026,0.03659,0.10407,0.08632
760.0,0.07946,0.03898,0.09545,0.09783,0.05011,0.03646,0.10327,0.08609
761.0,0.07942,0.03904,0.0956,0.09789,0.04981,0.03661,0.10358,0.08613
762.0,0.07921,0.03897,0.09569,0.09804,0.04962,0.03636,0.10306,0.08613
763.0,0.07897,0.03911,0.09597,0.09813,0.04944,0.03663,0.10285,0.08642
764.0,0.07873,0.03884,0.09591,0.09811,0.04918,0.0363,0.10265,0.08631
765.0,0.07893,0.03909,0.09619,0.09843,0.04915,0.03657,0.10276,0.08672
766.0,0.07848,0.03871,0.09605,0.09825,0.04896,0.03609,0.10267,0.08621
767.0,0.07859,0.03876,0.09616,0.09817,0.04898,0.03622,0.1022,0.08638
768.0,0.07862,0.03871,0.09637,0.09848,0.04909,0.03629,0.10238,0.08641
769.0,0.07828,0.03857,0.09634,0.0982,0.04876,0.03597,0.1019,0.08646
770.0,0.07803,0.03877,0.09652,0.09871,0.04859,0.03629,0.10186,0.08647
771.0,0.07785,0.03841,0.09758,0.09953,0.04814,0.03584,0.10251,0.08648
772.0,0.07882,0.03866,0.09782,0.09974,0.04816,0.03619,0.10214,0.08762
773.0,0.07853,0.03934,0.09799,0.09976,0.04887,0.03647,0.10226,0.08782
774.0,0.07839,0.03947,0.09788,0.10003,0.04871,0.03713,0.10185,0.08799
775.0,0.07735,0.03958,0.09734,0.10002,0.04762,0.03696,0.10097,0.08796
776.0,0.07703,0.03864,0.09721,0.09888,0.0471,0.03611,0.10031,0.08669
777.0,0.07717,0.03839,0.09765,0.09908,0.04716,0.03563,0.10035,0.08691
778.0,0.07651,0.03846,0.09737,0.09919,0.04663,0.03592,0.09993,0.08706
779.0,0.07677,0.03867,0.09753,0.09977,0.04667,0.03615,0.09982,0.08755
780.0,0.07626,0.03856,0.09756,0.0993,0.04608,0.03594,0.09947,0.08708
781.0,0.07655,0.03821,0.09782,0.09948,0.04641,0.03566,0.09908,0.08704
782.0,0.07619,0.03826,0.09806,0.09971,0.04602,0.03599,0.09937,0.08746
783.0,0.07598,0.03834,0.09775,0.09981,0.04592,0.03592,0.09885,0.08768
784.0,0.07579,0.03838,0.09786,0.09982,0.04556,0.03582,0.09897,0.08788
785.0,0.07585,0.03813,0.09773,0.09977,0.04528,0.03562,0.09869,0.08742
786.0,0.07603,0.03822,0.09843,0.0997,0.04566,0.0355,0.09847,0.08782
787.0,0.07507,0.03819,0.09758,0.10029,0.04492,0.03585,0.09803,0.08787
788.0,0.07565,0.03819,0.09837,0.10026,0.04535,0.03563,0.09817,0.08809
789.0,0.07505,0.03817,0.09813,0.1001,0.04462,0.03576,0.09793,0.0878
790.0,0.07511,0.03798,0.09793,0.09996,0.0447,0.03549,0.09749,0.08763
791.0,0.07472,0.03824,0.09804,0.10015,0.04438,0.0356,0.09736,0.08813
792.0,0.07441,0.03786,0.09799,0.10026,0.04417,0.03554,0.09707,0.08813
793.0,0.07455,0.03817,0.0981,0.10027,0.04419,0.03547,0.09702,0.08798
794.0,0.07464,0.03766,0.09792,0.10041,0.04396,0.03535,0.09674,0.08813
795.0,0.07402,0.03795,0.09795,0.10026,0.04386,0.03546,0.09629,0.0882
796.0,0.07383,0.03774,0.09811,0.10053,0.04383,0.03535,0.09637,0.08851
797.0,0.07389,0.03785,0.09801,0.10071,0.04369,0.03547,0.09598,0.08851
798.0,0.07359,0.03785,0.0981,0.10058,0.04333,0.03528,0.09571,0.08884
799.0,0.07345,0.03762,0.09765,0.10062,0.0431,0.0354,0.09545,0.08838
800.0,0.0734,0.03808,0.09808,0.10096,0.0433,0.03551,0.09548,0.08893
,,,,,,,,
